<Actel_Data_File>
    <format name="NVM File" version="01.00.00"/>
    <header>
        <die>
            MPF300TS
        </die>
        <family>
            PolarFire
        </family>
        <module>
            snvm
        </module>
        <package>
            FCG1152
        </package>
        <version>
            2023.1.0.6
        </version>
    </header>
    <nvm>
        <region name="INIT_STAGE_2_3_SNVM_CLIENT" address="0x000000" retrieveAddressFromFile="false" size="28840" format="HEX" type="PlainText NonAuthenticated" wordSize="8" numberWords="28840" memFile="designer\BaseDesign\BaseDesign_init_stage_2_3_snvm.mem" memType="Microsemi Binary 32-bit" memFileTimeStamp="" clientType="public" program="true">
            <write_protect/>
            <fabric_accessible/>
            <mss_accessible/>
            0040a011000000206f000000106800006f000000c0200000000000000000
            000000000000000000006f00000000440000000000000000000000000000
            0000000000000000000000006f0000008060000000000000000000000000
            00000000000000000000000000006f000000008000000000000000000000
            0000000000000000000000000000000000000000000000006f000000409c
            00006f00000080bc00000000000000000000000000000000000000000000
            0000000000000000000000006f000000500c00006f00000080a401006f00
            000040d800006f00000080f800006f000000c01801006f000000003c0100
            6f000000405c01006f000000807c01006f00000040c001006f00000080e0
            010013000000000000001300000000000000130000000000000013040000
            01e003002380000011000000238800002100000023900000310000002398
            00004100000023a000005100000023a800006100000023b0000071000000
            23b8000081000000238000009108000023880000a108000023900000b108
            000023980000c108000023a00000d108000023a80000e108000023b00000
            f108000023b80000010c0000238000001114000023880000211400002390
            000031140000239800004114000023a000005114000023a8000061140000
            23b000007114000023b800008114000023800000911c000023880000a11c
            000023900000b11c000023980000c11c000023a00000d11c000023a80000
            e11c000023b00000f11c00007394000020d00000f394000010d00000ef00
            000010e000006f000000c0fc01001304000001e003002380000011000000
            23880000210000002390000031000000239800004100000023a000005100
            000023a800006100000023b000007100000023b800008100000023800000
            9108000023880000a108000023900000b108000023980000c108000023a0
            0000d108000023a80000e108000023b00000f108000023b80000010c0000
            238000001114000023880000211400002390000031140000239800004114
            000023a000005114000023a800006114000023b000007114000023b80000
            8114000023800000911c000023880000a11c000023900000b11c00002398
            0000c11c000023a00000d11c000023a80000e11c000023b00000f11c0000
            ef000000d0a800006f00000040dc01001304000001e00300238000001100
            000023880000210000002390000031000000239800004100000023a00000
            5100000023a800006100000023b000007100000023b80000810000002380
            00009108000023880000a108000023900000b108000023980000c1080000
            23a00000d108000023a80000e108000023b00000f108000023b80000010c
            000023800000111400002388000021140000239000003114000023980000
            4114000023a000005114000023a800006114000023b000007114000023b8
            00008114000023800000911c000023880000a11c000023900000b11c0000
            23980000c11c000023a00000d11c000023a80000e11c000023b00000f11c
            0000ef000000906000006f000000c0b801001304000001e0030023800000
            1100000023880000210000002390000031000000239800004100000023a0
            00005100000023a800006100000023b000007100000023b8000081000000
            238000009108000023880000a108000023900000b108000023980000c108
            000023a00000d108000023a80000e108000023b00000f108000023b80000
            010c00002380000011140000238800002114000023900000311400002398
            00004114000023a000005114000023a800006114000023b0000071140000
            23b800008114000023800000911c000023880000a11c000023900000b11c
            000023980000c11c000023a00000d11c000023a80000e11c000023b00000
            f11c0000ef000000909800006f000000409801001304000001e003002380
            000011000000238800002100000023900000310000002398000041000000
            23a000005100000023a800006100000023b000007100000023b800008100
            0000238000009108000023880000a108000023900000b108000023980000
            c108000023a00000d108000023a80000e108000023b00000f108000023b8
            0000010c0000238000001114000023880000211400002390000031140000
            239800004114000023a000005114000023a800006114000023b000007114
            000023b800008114000023800000911c000023880000a11c000023900000
            b11c000023980000c11c000023a00000d11c000023a80000e11c000023b0
            0000f11c0000ef000000907800006f000000c07401001304000001e00300
            238000001100000023880000210000002390000031000000239800004100
            000023a000005100000023a800006100000023b000007100000023b80000
            81000000238000009108000023880000a108000023900000b10800002398
            0000c108000023a00000d108000023a80000e108000023b00000f1080000
            23b80000010c000023800000111400002388000021140000239000003114
            0000239800004114000023a000005114000023a800006114000023b00000
            7114000023b800008114000023800000911c000023880000a11c00002390
            0000b11c000023980000c11c000023a00000d11c000023a80000e11c0000
            23b00000f11c0000ef000000d05400006f000000405401001304000001e0
            030023800000110000002388000021000000239000003100000023980000
            4100000023a000005100000023a800006100000023b000007100000023b8
            000081000000238000009108000023880000a108000023900000b1080000
            23980000c108000023a00000d108000023a80000e108000023b00000f108
            000023b80000010c00002380000011140000238800002114000023900000
            31140000239800004114000023a000005114000023a800006114000023b0
            00007114000023b800008114000023800000911c000023880000a11c0000
            23900000b11c000023980000c11c000023a00000d11c000023a80000e11c
            000023b00000f11c0000ef000000103800006f000000c030010013040000
            01e003002380000011000000238800002100000023900000310000002398
            00004100000023a000005100000023a800006100000023b0000071000000
            23b8000081000000238000009108000023880000a108000023900000b108
            000023980000c108000023a00000d108000023a80000e108000023b00000
            f108000023b80000010c0000238000001114000023880000211400002390
            000031140000239800004114000023a000005114000023a8000061140000
            23b000007114000023b800008114000023800000911c000023880000a11c
            000023900000b11c000023980000c11c000023a00000d11c000023a80000
            e11c000023b00000f11c0000ef000000d01400006f000000401001001304
            000001e00300238000001100000023880000210000002390000031000000
            239800004100000023a000005100000023a800006100000023b000007100
            000023b8000081000000238000009108000023880000a108000023900000
            b108000023980000c108000023a00000d108000023a80000e108000023b0
            0000f108000023b80000010c000023800000111400002388000021140000
            2390000031140000239800004114000023a000005114000023a800006114
            000023b000007114000023b800008114000023800000911c000023880000
            a11c000023900000b11c000023980000c11c000023a00000d11c000023a8
            0000e11c000023b00000f11c0000ef00000080f401006f000000c0ec0000
            1304000001e0030023800000110000002388000021000000239000003100
            0000239800004100000023a000005100000023a800006100000023b00000
            7100000023b8000081000000238000009108000023880000a10800002390
            0000b108000023980000c108000023a00000d108000023a80000e1080000
            23b00000f108000023b80000010c00002380000011140000238800002114
            00002390000031140000239800004114000023a000005114000023a80000
            6114000023b000007114000023b800008114000023800000911c00002388
            0000a11c000023900000b11c000023980000c11c000023a00000d11c0000
            23a80000e11c000023b00000f11c0000ef00000040d401006f00000040cc
            00001304000001e003002380000011000000238800002100000023900000
            31000000239800004100000023a000005100000023a800006100000023b0
            00007100000023b8000081000000238000009108000023880000a1080000
            23900000b108000023980000c108000023a00000d108000023a80000e108
            000023b00000f108000023b80000010c0000238000001114000023880000
            211400002390000031140000239800004114000023a000005114000023a8
            00006114000023b000007114000023b800008114000023800000911c0000
            23880000a11c000023900000b11c000023980000c11c000023a00000d11c
            000023a80000e11c000023b00000f11c0000ef00000000b401006f000000
            c0a800001304000001e00300238000001100000023880000210000002390
            000031000000239800004100000023a000005100000023a8000061000000
            23b000007100000023b8000081000000238000009108000023880000a108
            000023900000b108000023980000c108000023a00000d108000023a80000
            e108000023b00000f108000023b80000010c000023800000111400002388
            0000211400002390000031140000239800004114000023a0000051140000
            23a800006114000023b000007114000023b800008114000023800000911c
            000023880000a11c000023900000b11c000023980000c11c000023a00000
            d11c000023a80000e11c000023b00000f11c0000ef000000c09001006f00
            0000408800001304000001e0030023800000110000002388000021000000
            2390000031000000239800004100000023a000005100000023a800006100
            000023b000007100000023b8000081000000238000009108000023880000
            a108000023900000b108000023980000c108000023a00000d108000023a8
            0000e108000023b00000f108000023b80000010c00002380000011140000
            23880000211400002390000031140000239800004114000023a000005114
            000023a800006114000023b000007114000023b800008114000023800000
            911c000023880000a11c000023900000b11c000023980000c11c000023a0
            0000d11c000023a80000e11c000023b00000f11c0000ef000000c0680100
            6f000000c06400001304000001e003002380000011000000238800002100
            00002390000031000000239800004100000023a000005100000023a80000
            6100000023b000007100000023b800008100000023800000910800002388
            0000a108000023900000b108000023980000c108000023a00000d1080000
            23a80000e108000023b00000f108000023b80000010c0000238000001114
            000023880000211400002390000031140000239800004114000023a00000
            5114000023a800006114000023b000007114000023b80000811400002380
            0000911c000023880000a11c000023900000b11c000023980000c11c0000
            23a00000d11c000023a80000e11c000023b00000f11c00000040a0310040
            a041004026120000002013140000000000006f000000c0440000039c0000
            c4080000e328000007f8030003a402000400000093580200370400002380
            02000400000063780300062800000394000044140000835c0100c4000000
            93dc0300470000006338020007000000839c00004400000033140000f500
            0100839c0000440c00006318020007000000839c00000410000033140000
            f5000100839c0000c4080000839400000408000013180000050000009318
            0000000000001314020004000000e700020007000000931c0000f0fc0300
            035c0100c400000063480000f50800008398020004000000931c0000d004
            000063900300d7300000b71c000040800000931c020017000000b35c0300
            d700000093dc0300170000006328020007280000839c0000040400002388
            00000400000023800000f4000000935c0000370400006370030007000000
            931c0000f0fc030063580000f5000000839c020004000000635002000700
            000023a80000a410000083940000440c00002380020024040000e3080200
            05d00300931c00004410000063180200f50000001314020004000000ef00
            000080dc000023a80000040800006fc00300dfc803008394000004080000
            931800001000000013180000000000001314020004000000e70000000700
            0000931c0000f0fc0300e3680000f5c80300839c020004000000e3180200
            07c80300131c0000d004000063180200e7000000131c0000600400006358
            0200e700000023800200240400006fc003001fbc0300835c0100c4000000
            939c03000710000023580000f400000083800000c1040000039000008104
            0000839000004104000003a400000104000083a40000c100000013040000
            010800006700020000000000139c01000710000023580000e40000006fc0
            0300dff4030083a4020005040000e328020009a8030003a4020005000000
            93dc03003700000023800200350400003324000039040100131c00000000
            00006350020007000000039c02004504000023900000e4000000e3600100
            20a40300839c000084080000839400000408000093180000090000001318
            0200090000001314020004000000e70002000700000063300100a0000000
            835c0100c400000013140000f0fc0300939c03000710000023580000f400
            00006fc003001fe00300b3240200a900000033240000a90001006fc00300
            5ff00300839c02000504000063280200072000001304000001f8030023b0
            00008100000023b800001100000013100000050000006330000005000000
            839c000085040000636002000700000023980000b1000000ef8003005ff0
            020083940000c1000000971c000000000000931c020007bc010063480200
            f50800008394000044000000835c0200c500000063000200071000001314
            000004000000039000008104000083800000c10400001304000001080000
            6fc00300df6c0300971c000000000000931c020047b8010063580200f500
            000083940000840000006fc003005ff40300971c000000000000931c0200
            07a40100e3500200f5f0030083940000c40000006fc003001ff003008380
            0000c1040000039000008104000013140000000000001304000001080000
            6700020000000000131400000000000067000200000000001304000001fc
            030023900000810000001310000005000000131402000500000093140000
            06000000131802000600000023800200013802002398000011000000ef80
            03004fd80200931c0000f0fc030063680000f5000000931c020001380200
            839c020007000000631002000700000023800000f400000083800000c100
            000003900000810000001304000001040000670002000000000013040000
            01e0030023a8000091180000931002000500000083540200e500000023b0
            00008118000023b800001118000013100000060000006378030005000000
            835c0300c4000000238002000600000093dc030007200000634002000710
            0000931c0000000001006f000000c00c0000131800008104000023980000
            d1000000ef00000080ac000083980000c1000000e330010005f00300039c
            0000c1040000b7dc030000000000b3dc0300e7000000379c0300fffc0300
            b31c0200e700000093dc02001700000023800200f60000006fc003009ff0
            0300931c00000010000023800000f400000083800000c11c000003900000
            811c000083900000411c0000131400000000000013040000012000006700
            020000000000835c0300c50000001304000001f8030023b0000081000000
            23b800001100000023a800009100000023a000002104000093dc03002700
            000013100200050000006320020007080000931c00007410000023800000
            f400000023a00000f4000000931c00001000000023a80000f40000008380
            0000c10400000390000081040000839000004104000003a4000001040000
            1304000001080000670002000000000093180000c1000000131800008100
            00009310000005000000efc003009fc40300839400008100000013240000
            050000001314020004000000ef8003001f1803006340000005080000835c
            0000c400000013dc030007800000e378000007e8030093dc0300c7fc0300
            939c03002700000023580000f40000006fc003009fe4030097dc0300fffc
            0300931c02000758020023900200f4080000835c0100c400000023800000
            a400000023a00000a4000000939c03000720000023580000f4000000839c
            00008100000023a80000f4000000839c0000c10000006308020007080000
            83540000e40000001314020004000000ef000000c0780000632800000500
            0000835c0100c400000093dc0300c7fc0300939c03001700000023580000
            f4000000835c0100c400000033a40100f900000023580000240400006fc0
            0300dfd0030093d40300f53c000033180000c500000063580000c5000000
            13140000000000006700020000000000831c010005000000e3300200b7f8
            030013140000150000006fc003009ff80300670002000000000067000200
            000000006300020005400000839c0200c5fc03001304000001fc03002390
            0000810000002398000011000000238800009100000013100200c5fc0300
            635003000700000033100000f40000009310000005000000efc003001ff4
            0300931c020081200200839c020007000000634802000708000023880000
            040000002390020081200200039000008100000083800000c10000001314
            020004000000839000004100000013040000010400006fc003009fe80300
            63d80100f40800008398000004000000331c0000d400000063680200e700
            0000039c020007000000839c020047000000331c0000d700000023800000
            e400000023880000f40000006fc003001ff00300931c000007000000039c
            0200470000006310000007000000e3e80100e4f803008398020007000000
            33180200d700000063600000860800000398000004000000b3180200c600
            000023800200d700000033180200d7000000e3680000c7e0030003980000
            07000000039c000047000000b3180000d600000023800200d70000002388
            0200e70000006fc00300dfdc030063e00100c4000000931c0000c0000000
            23800200f40000006fc00300dfd803000398000004000000b3180000c400
            000063680000d70000008398000007000000039c000047000000b3180200
            c600000023800000d400000023880000e400000023880200870000006fc0
            03005fd0030067000200000000001304000001fc03002390000081000000
            131000000500000013140200050000009314000006000000131802000600
            000023800200013802002398000011000000ef8003008f1c0200931c0000
            f0fc030063680000f5000000931c020001380200839c0200070000006310
            02000700000023800000f400000083800000c10000000390000081000000
            130400000104000067000200000000001304000001fc0300239000008100
            000013100000050000001314020005000000931400000600000023800200
            013802002398000011000000ef400300dff80300931c0000f0fc03006368
            0000f5000000931c020001380200839c0200070000006310020007000000
            23800000f400000083800000c10000000390000081000000130400000104
            000067000200000000001304000001fc0300239000008100000013100000
            05000000131402000500000023800200013802002398000011000000ef40
            03009fe40300931c0000f0fc030063680000f5000000931c020001380200
            839c020007000000631002000700000023800000f400000083800000c100
            000003900000810000001304000001040000670002000000000063000100
            051800006318030005180000131802000500000093140000050000001314
            0000f0fc03006330000006080000931800001000000063e80100b6000000
            63600100c000000013580000160000009358020016000000e3a80100b6f8
            0300131400000000000063980300c5000000b3140200c500010033940100
            d500000093580300160000001358010016000000e358020006f803006700
            0200000000009308020000000000efc003005fec03001314020005000000
            670002000200000033140000a00001006360030005000000b3140000b000
            01006fc00300dfe40300b3140000b00001009308020000000000efc00300
            1fe4030033140000a0000100670002000200000093080200000000006328
            0300050000006330010005000000efc003009fdc03001314020005000000
            6700020002000000b3140000b0000100e360010005f8030033140000a000
            0100efc003001fd8030033140000b0000100670002000200000000000000
            000000000000000000000000000000000000000020340000000002001c34
            000000000200243400000000020040340000000002004034000000000200
            4034000000000200403400000000020028340000000002002c3400000000
            02003034000000000200343400000000020038340000000002003c340000
            000002004c34000000000200443400000000020048340000000002000d28
            000049b801007494010072b8010061b00100204c010079cc010074940100
            6d80000054a401006d9401007280000049b801007494010072c8010075c0
            010074000000000000000d2800002aa800002aa800002aa800002aa80000
            2aa800002aa800002aa800002aa800002aa800002aa800002aa800002aa8
            00002aa800002aa800002aa800002aa800002aa800002aa800002aa80000
            2aa800002aa800002aa800002aa800002aa800002aa800002aa800002aa8
            00002aa800002aa800002aa800002aa800002aa800002aa800002aa80000
            2aa800002aa800002aa800002aa800002aa800000d2800000aa800002aa8
            00002aa800002aa800002aa800002aa800002aa800002aa800002aa80000
            2aa800002a800000208000002034010069b400005680000053e4010073d0
            010065b401002050010069b4010065c80100200801006ca401006eac0100
            7980000045e0010061b4010070b00100658000002080000020a800002aa8
            00002aa800002aa800002aa800002aa800002aa800002aa800002aa80000
            2aa800002aa800002aa800000d2800000aa800002aa800002aa800002aa8
            00002aa800002aa800002aa800002aa800002aa800002aa8000000402632
            0040264200002612000000202aa800002aa800002aa800002aa800002aa8
            00002aa800002aa800002aa800002aa800002aa800002aa800002aa80000
            2aa800002aa800002aa800002aa800002aa800002aa800002aa800002aa8
            00002aa800002aa800002aa800002aa800002aa800002aa800002aa80000
            2aa800002aa800002a3400000a3400000a3c010062cc010065c801007694
            010020d001006894010020300100451001007380000062b0010069b80100
            6ba401006e9c010020bc01006e80000074a001006580000062bc010061c8
            010064b800002050010068940100203001004510010020c0010061d00100
            7494010072b80100208c0100688401006e9c010065cc0100209401007694
            010072e4010020d0010069b40100658000006180000073e4010073d00100
            65b4010020d0010069b4010065c8010020a401006ed0010065c8010072d4
            010070d0010020bc0100638c010075c8010073b800000d28000000000000
            000000000000000000000000000000000000000000000000000000000000
            000000000000000000000000000000000000000000000000000000000000
            000000000000000000000000000000000000000000000000000000000000
            000000000000000000000000000000000000000000000000000000000000
            000000000000000000000000000000000000000000000000000000000000
            000000000000000000000000000000000000000000000000000000000000
            0000000000000000000000000000000023b4000030ac0000200000000000
            000068b001004c0000006598010067140100461c01000000000030c40000
            32cc000034d4000036dc000038e400004108010043100100451801000000
            00000000000030c4000032cc000034d4000036dc000038e4000061880100
            63900100659801000000000000000000000000000000000070c400000000
            020000000000000000000000000000000000000000000000000050c80000
            0000020044bc00000000020070c400000000020000000000000000000000
            000000000000d0c0000000000200f0c0000000000200b0c0000000000200
            000000000000000000000000000000000000000000000000000000000000
            000000000000000000000000000000000000000000000000000000000000
            000000000000000000000000000000000000000000000000000000000000
            000000000000000000000000000000000000000000000000000000000000
            000000000000000000000000000000000000000000000000000000000000
            000000000000000000000000000000000000000000000000000000000000
            000000000000000000000000000000000000000000000000000000000000
            000000000000000000000000000000000000000000000000000000000000
            000000000000000000000000000000000000000000000000000000000000
            000000000000000000000000000000000000000000000000000000000000
            000000000000000000000000000000000000000000000000000000000000
            000000000000000000000000000000000000000000000000000000000000
            000000000000000000000000000000000000000000000000000000000000
            000000000000000000000000000000000000000000000000000000000000
            000000000000000000000000000000000000000000000000000000000000
            000000000000000000000000000000000000000000000000000000000000
            000000000000000000000000000000000000000000000000000000000000
            000000000000000000000000000000000000000000000000000000000000
            000000000000000000000000000000000000000000000000000000000000
            000000000000000000000000000000000000000000000000000000000000
            000000000000000000000000000000000000000000000000000000000000
            000000000000000000000000000000000000000000000000000000000000
            000000000000000000000000000000000000000000000000000000000000
            000000000000000000000000000000000000000000000000000000000000
            000000000000000000000000000000000000000000000000000000000000
            000000000000000000000000000000000000000000000000000000000000
            000000000000000000000000000000000000000000000000000000000000
            000000000000000000000000000000000000000000000000000000000000
            000000000000000000000000000000000000000000000000000000000000
            000000000000000000000000000000000000000000000000000000000000
            000000000000000000000000000000000000000000000000000000000000
            000000000000000000000000000000000000000000000000000000000000
            000000000000000000000000000000000000000000000000000000000000
            000000000000000000000000000000000000000000000000000000000000
            000000000000000000000000000000000000000000000000000000000000
            000000000000000000000000000000000000000000000000000000000000
            000000000000000000000000000000000000000000000000000000000000
            000000000000000000000000000000000000000000000000000000000000
            000000000000000000000000000000000000000000000000000000000000
            000000000000000000000000000000000000000000000000000000000000
            000000000000000000000000000000000000000000000000000000000000
            000000000000000000000000000000000000000000000000000000000000
            000000000000000000000000000000000000000000000000000000000000
            000000000000000000000000000000000000000000000000000000000000
            000000000000000000000000000000000000000000000000000000000000
            000000000000000000000000000000000000000000000000000000000000
            000000000000000000000000000000000000000000000000000000000000
            000000000000000000000000000000000000000000000000000000000000
            000000000000000000000000000000000000000000000000000000000000
            000000000000000000000000000000000000000000000000000000000000
            000000000000000000000000000000000000000000000000000000000000
            000000000000000000000000000000000000000000000000000000000000
            000000000000000000000000000000000000000000000000000000000000
            000000000000000000000000000000000000000000000000000000000000
            000000000000000000000000000000000000000000000000000000000000
            000000000000000000000000000000000000000000000000000000000000
            000000000000000000000000000000000000000000000000000000000000
            000000000000000000000000000000000000000000000000000000000000
            000000000000000000000000000000000000000000000000000000000000
            000000000000000000000000000000000000000000000000000000000000
            000000000000000000000000000000000000000000000000000000000000
            000000000000000000000000000000000000000000000000000000000000
            000000000000000000000000000000000000000000000000000000000000
            000000000000000000000000000000000000000000000000000000000000
            000000000000000000000000000000000000000000000000000000000000
            000000000000000000000000000000000000000000000000000000000000
            000000000000000000000000000000000000000000000000000000000000
            000000000000000000000000000000000000000000000000000000000000
            000000000000000000000000000000000000000000000000000000000000
            000000000000000000000000000000000000000000000000000000000000
            000000000000000000000000000000000000000000000000000000000000
            000000000000000000000000000000000000000000000000000000000000
            000000000000000000000000000000000000000000000000000000000000
            000000000000000000000000000000000000000000000000000000000000
            000000000000000000000000000000000000000000000000000000000000
            000000000000000000000000000000000000000000000000000000000000
            000000000000000000000000000000000000000000000000000000000000
            000000000000000000000000000000000000000000000000000000000000
            000000000000000000000000000000000000000000000000000000000000
            000000000000000000000000000000000000000000000000000000000000
            000000000000000000000000000000000000000000000000000000000000
            000000000000000000000000000000000000000000000000000000000000
            000000000000000000000000000000000000000000000000000000000000
            000000000000000000000000000000000000000000000000000000000000
            000000000000000000000000000000000000000000000000000000000000
            000000000000000000000000000000000000000000000000000000000000
            000000000000000000000000000000000000000000000000000000000000
            000000000000000000000000000000000000000000000000000000000000
            000000000000000000000000000000000000000000000000000000000000
            000000000000000000000000000000000000000000000000000000000000
            000000000000000000000000000000000000000000000000000000000000
            000000000000000000000000000000000000000000000000000000000000
            000000000000000000000000000000000000000000000000000000000000
            000000000000000000000000000000000000000000000000000000000000
            000000000000000000000000000000000000000000000000000000000000
            000000000000000000000000000000000000000000000000000000000000
            000000000000000000000000000000000000000000000000000000000000
            000000000000000000000000000000000000000000000000000000000000
            000000000000000000000000000000000000000000000000000000000000
            000000000000000000000000000000000000000000000000000000000000
            000000000000000000000000000000000000000000000000000000000000
            000000000000000000000000000000000000000000000000000000000000
            000000000000000000000000000000000000000000000000000000000000
            000000000000000000000000000000000000000000000000000000000000
            000000000000000000000000000000000000000000000000000000000000
            000000000000000000000000000000000000000000000000000000000000
            000000000000000000000000000000000000000000000000000000000000
            000000000000000000000000000000000000000000000000000000000000
            000000000000000000000000000000000000000000000000000000000000
            000000000000000000000000000000000000000000000000000000000000
            000000000000000000000000000000000000000000000000000000000000
            2632000026420000a8110000002093180000460000006338020005200000
            839000000600000023800000d70000006360030004000000931c0000d008
            0000b310000090000100a3040000f4100000176800000000000013280000
            4a40000013240000a00000006f000000c048000093180000301c00006310
            0200d798000063880300f608000093180000f018000063380200d7180000
            93180000001c0000e3680200d7e00300839c020005000000939c03000708
            000023800200f50000006f0000004004000093180000501c000063380200
            d710000093180000801c0000e3680200d7d80300931c0000801c0000a308
            0000f41000001768000000000000132800004a3000006f00000080240000
            839c00000700000013300200251000009318020047000000839c02000700
            000023800000d700000023040000f4100000931c0000100000006f000000
            008c0000839000000600000093dc03000710000023800000d7000000e308
            020007d80300935002000404000093500300040401006fc003009fd40300
            0398000004000000839800000700000013d4010006200000931402004600
            0000632000000500000023800000b700000083900200060000006f000000
            4004000013d801000610000023800000b7000000e320000006f803008350
            030006000000131c0000f01800001768000000000000132800004a0c0000
            13240000a000000063700200e710000013240000800000006f0000000014
            0000a3080200f51000001768000000000000132800008a040000839c0000
            04000000839800000700000013d803000720000083900200060000009318
            020046000000631800000640000023800000d700000013dc030017000000
            6318000007000000939c03000708000023800000f4000000132400000004
            00006360020004000000839c00000400000093dc0300f7f4030023800000
            f4000000a304000004100000839c00004400000023900000f40000006320
            030007000000039c00000400000013dc0100b7fc030023800000e4000000
            635802000400000013300200090000006328020007080000133002000900
            000093140000090000001314020004000000ef0000009038010033140000
            aa000000831c01000500000013300000fcfc030093140000090000002300
            0000fc0000001314020004000000ef0000005020010063c80300242c0000
            931c00008000000063500000f9080000839c00000400000093dc03001700
            00006338020007000000039c000044000000839c00000404000063200300
            e7000000931c0000000c0000a33c0000fcf8030013300000fcfc0300b324
            02008904010023a0000034040000131c02000b000000931800000b000000
            13180000c10000009314000004000000131402000a000000efc003001ff4
            020093100000f0fc0300637800009530000013140000f0fc030083800000
            c10c000003900000810c000083900000410c000003a40000010c000083a4
            0000c108000003a800008108000083a800004108000003ac000001080000
            83ac0000c104000003b00000810400001304000001100000670002000000
            000013d803000710000023800000d7000000e328000006b8030093500200
            0404000093500300040400006fc003009fb8030093100000050000006fc0
            03001fcc03008398020005000000839c0000070000000398020045040000
            13d40300062000009314020047000000632800000500000023800000b700
            0000839c02000700000023800200c70000006f0000008004000023800000
            b700000093d8030006100000839c020007000000e318020006f803002340
            0200c700000023a000000400000013300200090000006fc003009fd00300
            839c00000700000003980200450000009314000000000000931802004700
            000023800000d700000003b0020007000000131400000c000000ef000000
            105800006318000005000000331400008504010023880000a4000000839c
            00004400000023a00000f4000000a3040000041000006fc00300dfc00300
            8398000004040000131800000c000000931400000b000000131402000a00
            0000e70002000b000000e328000095c00300839c00000400000093dc0300
            270000006350020007100000839c0000c100000003940000c4000000e340
            0100f5c0030013140200070000006fc003009fbc03009318000010000000
            1318000009000000931400000b000000131402000a000000e70002000b00
            0000e338000035b403009310020014000000839c0000c4000000039c0000
            c1000000b31c0200e7000100e3300300f4f003006fc003001ff003009310
            000000000000132400009404000093240000f0fc03006fc003001ff80300
            1304000001fc030023900000810000001310000005000000131402000500
            000023800200013802002398000011000000ef800300df780200931c0000
            f0fc030063680000f5000000931c020001380200839c0200070000006310
            02000700000023800000f400000083800000c10000000390000081000000
            130400000104000067000200000000001304000001fc0300239000008100
            0000131002000500000083540200e50000002398000011000000ef000000
            106800006300010005080000839c000044140000b31c0200a700000023a8
            0000f410000083800000c100000003900000810000001304000001040000
            6700020000000000835c0100c400000037dc0300fffc0300131c0000f7fc
            0300b3dc0300e700000023580000f40000006fc00300dff40300835c0300
            c50000001304000001f8030023b000008100000023a800009100000023a0
            000021040000239800003104000023b800001100000093dc030007400000
            931000000500000013100200050000001324000006000000932402000600
            0000632802000700000083540200e5000000931800002000000013180000
            00000000ef000000c0880100835c0100c400000037dc0300fffc0300131c
            0000f7fc0300b3dc0300e700000023580000f400000083540000e4000000
            039000008104000083800000c10400009318020009000000131800000900
            000083a40000c100000003a4000001040000131402000400000083900000
            4104000013040000010800006f8003001ff803001304000001fc03002390
            000081000000131002000500000083540200e50000002398000011000000
            ef00000040740100931c0000f0fc0300035c0100c400000063480000f508
            0000b7dc0300fffc0300931c0200f7fc0300b3dc0300e700000023580000
            f400000083800000c1000000039000008100000013040000010400006700
            020000000000b75c000000000000b39c0100f700000023580000f4000000
            23a80000a41000006fc003001ff8030083540200e50000006f000000c0ac
            00001304000001f8030023b000008100000023a800009100000023a00000
            2104000023b8000011000000239800003104000093100000050000001324
            02000500000013100000060000006320000005000000839c000085040000
            6350020007000000efc003004f280200975c000000000000931c020047f4
            020063780000f42800000390020044000000839c00008404000023900000
            f4000000835c0100c400000093dc0300870000006318020007300000839c
            0000040400006308020007300000839c0000040400000394000004000000
            93e40100f93c000013e40100f93c000033140000f5000100839c00004404
            000063280100f500000093140000040000001314020004000000ef000000
            401801006350000005280000839c0000840000001314000015000000931c
            0200f7fc030023900000f4000000839c000004000000131c020017000000
            23800000e40000002300020037040000839c00004404000063300200a700
            0000835c0100c400000093dc0300170000006338020007000000931c0000
            a000000063680000f900000093140000040000001314020004000000ef00
            000080040100637800000510000083800000c10400000390000081040000
            1314000009000000839000004104000003a400000104000083a40000c100
            000013040000010800006700020000000000975c000000000000931c0200
            07cc020063580000f400000003900200840000006fc00300dfcc0300975c
            000000000000931c0200c7b40200e3600000f4c8030003900200c4000000
            6fc003009fc8030093140000040000001314020004000000ef0000000004
            0000e328000005c8030013240000f0fc03006fc003005fe8030013040000
            01fc0300975c000000000000931c020047d8020023880000910000008390
            020007000000239000008100000023800000210400002398000011000000
            132400000500000013100200050000006328020004000000839c02008404
            000063580200070000001314020004000000ef8003005fd80300975c0000
            00000000931c020047a4020063600000f41000000390020044000000035c
            0000c4000000935c000007040000935c03000704000093d8030087000000
            635002000628000093d80300070400006370020006100000931c00009000
            000023800000f9000000139c01000710000023580000e400000013140000
            f0fc030083800000c10000000390000081000000839000004100000003a4
            00000100000013040000010400006700020000000000975c000000000000
            931c0200c794020063580000f400000003900200840000006fc003009fe8
            0300975c000000000000931c020087800200e3780000f4e0030003900200
            c40000006fc003005fe4030093dc03004700000063300200070800008394
            0000440c00006330020005000000931c00004410000063180200f5000000
            1314000009000000ef000000c058010023a8000004080000835c0100c400
            0000238800000400000093dc0300b7f4030023580000f4000000839c0000
            0404000023800000f4000000835c0100c4000000939c0300870000002358
            0000f4000000839c0000040400006340020007080000835c0100c4000000
            131c00000080000093dc030007a0000063200200e7000000931400000400
            00001314000009000000ef00000040000100835c0100c400000013dc0300
            170000006330000007080000839c0000440400002390000004000000b31c
            0000f000010023b00000f4000000839c0000040400001314000000000000
            e360020007c80300835c0000c400000013dc030007200000e308000007c8
            0300939c03000710000023580000f40000006fc003005fc4030093dc0300
            27000000131c0000000000006350020007000000039c0000440400002390
            0000e40000006fc003009ff003001304000001fc03002390000081000000
            131000000500000013140200050000002380020001380200239800001100
            0000ef800300cf7c0300931c0000f0fc030063680000f5000000931c0200
            01380200839c020007000000631002000700000023800000f40000008380
            0000c1000000039000008100000013040000010400006700020000000000
            835c0300c50000001304000001f8030023b000008100000023a800009100
            000023b800001100000023a0000021040000239800003104000013dc0300
            87000000931000000500000013100200050000006378000007500000039c
            02004500000063280100e0000000039c02000510000063180100e0000000
            0000a8310000a8410000a21100000020b31c02002904000023000200a700
            0000039400000400000013240000190000001314000005040000efc00300
            df9c0300831c010044000000b39c0100f500000023080000f400000013d4
            0100250000006fc003005fe8030093100000000000006fc003005fe80300
            93100000090000006fc00300dfe403006308000005180000630002000518
            00001304000001fc03002390000081000000238800009100000023980000
            1100000093100000050000001310020005000000831c0100040000006370
            02000700000083800000c100000003900000810000008390000041000000
            130400000104000067000200000000000394020004000000131400000504
            0000efc003001f84030013d4010015000000e320000005f8030083140100
            0400000003940200040000001310000014000000efc003001f7c03006fc0
            03001ff0030067000200000000001304000001fc03002390000081000000
            131000000500000023880000910000002380000021040000239800001100
            000023800000b4000000931002000500000023880000c500000013240200
            05200000131402000400000093140000000000009310020044000000efc0
            03001f6c0300e360020024fc0300839c000044000000131c000010000000
            63280200e70800006310020007180000131c00002000000063680200e728
            00000394000004000000039000008100000083800000c100000083900000
            4100000003a400000100000093140000f0fc030013140000052000001304
            0000010400006fc003001f3803000394000004000000b710000001000000
            93140200f4fc03001314000005200000efc003005f440300039400000400
            0000039000008100000083800000c100000003a400000100000093140200
            f4fc03008390000041000000131400004520000013040000010400006fc0
            03001f3c0300039400000400000093140000f03c00001314000005200000
            efc003009f480300039400000400000093140000f03c0000131400004520
            0000efc003009f440300039400000400000093140000f03c000013140000
            85200000efc003009f400300039400000400000003900000810000008380
            0000c1000000839000004100000003a400000100000093140000f03c0000
            13140000c520000013040000010400006fc003005f38030083800000c100
            00000390000081000000839000004100000003a400000100000013040000
            010400006700020000000000839c0000450000001304000001fc03002390
            00008100000023880000910000002398000011000000131c000010000000
            1310000005000000931002000500000063180200e7080000633802000710
            0000131c00002000000063580200e7280000039400000500000003900000
            8100000083800000c1000000839000004100000013140000052800001304
            0000010400006fc003001ffc020003940000050000009354020005040000
            93540300050400001314000005280000efc003005f080300039400000400
            0000039000008100000083800000c1000000935403000404000083900000
            41000000131400004528000013040000010400006fc003005f0003000394
            00000500000093d40300f53c00001314000005280000efc00300df0c0300
            0394000004000000935403008400000093d40300f53c0000131400004528
            0000efc003009f0803000394000004000000935403000404000093d40300
            f53c00001314000085280000efc003005f04030003940000040000000390
            00008100000083800000c100000093540300840400008390000041000000
            13140000c528000013040000010400006fc003005ffc020083800000c100
            000003900000810000008390000041000000130400000104000067000200
            00000000379c010000000000839c00000708000093dc0300d7fc03002380
            0000f70800006700020000000000931c020041200200039c020007000000
            1304000001fc03002398000011000000131c0100f700000023800200e700
            000083940200070000001314020001340200efc003001fb8030083800000
            c1000000179400000000000013140000850c030013040000010400006f00
            0000003400001304000001fc0300931800001000000013180000a0040000
            b714000000c4010013140200813402002398000011000000239000008100
            000023880000910000002380000021040000efc003005fec0200979c0000
            00000000931c0200479003000394020007000000ef000000802400001318
            000020000000b714000000d401001314020001340200efc003009f580300
            93140000000000001314020001340200efc003009f9c0300efc003005fa8
            0200b71c0000001c0000f39c020047c0000037d40300fa08000013140000
            052000009314000000000000efc00300cfdc030093100200012402001310
            020081340200132402000120020013180000001000009314020001240200
            1314000004000000efc00300dffc020023000200a1200200831c01000900
            000093dc0300f73c0000e308020007f80300931402000400000013140000
            04000000efc003001f28030023000200012002006fc003001ff40300130c
            000005000000632800000600000023000000b300000013180000f6fc0300
            130c000013000000e368000006f8030067000200000000001304000001f0
            030023a80000f108000023880000b108000023900000c108000023980000
            d108000023a00000e108000023b00000010c000023b80000110c0000979c
            000000000000931c02004760030023b00000810000000390020007000000
            23a800009100000023b80000110000009310000005000000632800000400
            0000839c00008404000063580200070000001314000004000000ef000000
            c06000008394000084000000931800004108000013180200040000001314
            00000400000023980000d1000000ef0000008070010083800000c1040000
            039000008104000083900000410400001304000001100000670002000000
            00006fc00300df5002001304000001fc0300239000008100000013100000
            050000001314020005000000931400000600000013180200060000002380
            0200013802002398000011000000efc003005f600200931c0000f0fc0300
            63680000f5000000931c020001380200839c020007000000631002000700
            000023800000f400000083800000c1000000039000008100000013040000
            0104000067000200000000001304000001fc030023900000810000002398
            000011000000131000000500000023580000b5000000235c0000c5000000
            238000000500000023880000050000002390000005000000238800000518
            000023a000000500000023a800000500000023b000000500000013180000
            80000000931400000000000013140000c5140000efc003009fb40300975c
            000000000000931c020007b0030023880000f4080000975c000000000000
            931c020047c0030023900000f4080000975c000000000000931c0200c7dc
            030023980000f4080000975c000000000000931c020087f0030023800000
            8408000023a00000f408000083800000c100000003900000810000001304
            000001040000670002000000000097540000000000009314020085240100
            6f000000008800001304000001fc030013180200f5fc0300239000008100
            0000135000001600000033100000c4000000135000002400000033100000
            c40000001350000034000000238000002104000013240200050000009314
            0000441c000023880000910000002398000011000000ef000000c0a40000
            931000000500000063000000050800002380000005000000238800002504
            000013140000c500000023900200a4000000131800008418000093140000
            00000000efc00300df88030083800000c100000003900000810000001314
            02000400000003a400000100000083900000410000001304000001040000
            6700020000000000839c00008504000063580200072800001304000001fc
            030023980000110000002390000081000000971c000000000000931c0200
            87d8030023900000f5080000979c000000000000931c020047e40200839c
            0200070000002390000005100000239800000510000023a0000005100000
            63580000f5000000931c00001000000023b00000f5000000131000000500
            0000ef000000c018000023880000a40000001314000004000000ef000000
            0018000023900000a40000001314000004000000ef000000401400002398
            0000a4000000039400004400000013180000000000009314000040000000
            efc003001fa0030003940000840000001318000010000000931400009000
            0000efc003001f9c030003940000c4000000131800002000000093140000
            20040000efc003001f980300931c00001000000023b00000f40000008380
            0000c1000000039000008100000013040000010400006700020000000000
            67000200000000001304000001fc0300979c000000000000931c0200c7bc
            020023880000910000008390020007000000238000002104000023980000
            11000000839c020084040000239000008100000013240000050000006358
            0200070000001314020004000000efc00300dfc403009310020084100000
            0390020084000000839c020044000000931c0200f7fc0300636803000700
            0000839c020004000000630002000720000083900200040000006fc00300
            5ff80300035c0000c40000006350000007180000b71c0000fffc0300931c
            020017000000238800000418000023800000040000002388000004000000
            239000000400000023980000f400000023a000000400000023a800000400
            000023b00000040000001318000080000000931400000000000013140000
            c4140000efc003005f30030023a800000408000023b00000040800002390
            0000041000002398000004100000131400000400000083800000c1000000
            0390000081000000839000004100000003a4000001000000130400000104
            0000670002000000000013100000841800006fc003009fdc030093140000
            400000001314000009000000efc003001f80030023800200a40000001310
            000005000000e360000005d80300931c0000c000000023800000f9000000
            6fc00300dfec03001304000001f40300239000008108000023800000210c
            000023b000004104000023a800005104000023a000006104000023980000
            710400002398000011080000238800009108000023b80000310400001328
            000005000000932802000500000013100000851000001324000000000000
            132c000010000000932c0000f0fc0300636800000408000083800000c108
            000003900000810800001314000009000000839000004108000003a40000
            0108000083a40000c104000003a800008104000083a800004104000003ac
            00000104000083ac0000c100000013040000010c00006700020000000000
            839000008400000083a400004400000093240200f9fc0300635803000900
            000003900000040000006fc003009fec0300835c0300c400000063f80100
            fb000000835c0200e4000000632802007704000093140200040000001314
            00000a000000e70002000a00000033a40100a90000009310020084180000
            6fc00300dff003001304000001f8030023a8000091000000931002003500
            00000000a2310000a2410000a41100000020ef000000405001006f000000
            404400001304000001e00300238000001100000023880000210000002390
            000031000000239800004100000023a000005100000023a8000061000000
            23b000007100000023b8000081000000238000009108000023880000a108
            000023900000b108000023980000c108000023a00000d108000023a80000
            e108000023b00000f108000023b80000010c000023800000111400002388
            0000211400002390000031140000239800004114000023a0000051140000
            23a800006114000023b000007114000023b800008114000023800000911c
            000023880000a11c000023900000b11c000023980000c11c000023a00000
            d11c000023a80000e11c000023b00000f11c0000ef000000003001006f00
            0000c02000001304000001e0030023800000110000002388000021000000
            2390000031000000239800004100000023a000005100000023a800006100
            000023b000007100000023b8000081000000238000009108000023880000
            a108000023900000b108000023980000c108000023a00000d108000023a8
            0000e108000023b00000f108000023b80000010c00002380000011140000
            23880000211400002390000031140000239800004114000023a000005114
            000023a800006114000023b000007114000023b800008114000023800000
            911c000023880000a11c000023900000b11c000023980000c11c000023a0
            0000d11c000023a80000e11c000023b00000f11c0000ef000000c00c0100
            6f0000004000000083800000010000000384000041000000838400008100
            000003880000c10000008388000001040000038c000041040000838c0000
            8104000003900000c1040000839000000108000003940000410800008394
            00008108000003980000c108000083980000010c0000039c0000410c0000
            839c0000810c000003a00000c10c000083a000000110000003a400004110
            000083a400008110000003a80000c110000083a800000114000003ac0000
            4114000083ac00008114000003b00000c114000083b000000118000003b4
            00004118000083b400008118000003b80000c118000083b80000011c0000
            03bc0000411c000083bc0000811c000013040000012000007300000020c0
            000000000000000000007340010000c000007340010040c0000097c00300
            fffc03009300020080940100b70803000008000093080200c2fc03002380
            020002000000f388000010c0000093c80300120000006358020002080000
            f388000050c0000093c8030032000000130c000010000000637802006200
            0000f388000050c0000093c80300c2fc030017cc0300fffc0300130c0000
            4388010063600200621000006f0000000004000097c80300fffc03009308
            0200428401007340020052c00000179c000000000000131c000047d80100
            979c000000000000931c0200c7d4010017a00000000000001320000048d8
            010063200000f700000063180200070400009700000000000000e7000200
            4024000097c400000000000093040200c1cc0300ef000000000400001304
            0200013c00006f000000c0b0000073000000100000009308020000000000
            931c02000124020013200200013c02006310020007040000ef0000004010
            0000931c0200011c020013200200012402006330020007040000ef000000
            400c0000931c0200013c020013200200013c02006310020007040000ef00
            000040080000131c020001040200931c02000104020013200200011c0200
            63180000f70000006310020007040000ef000000c0080000930002000200
            0000670002000000000063900100f8100000b3a00100f800000093e00300
            3800000063380100100c00002380020007000000931c020047000000e330
            030007fc0300670002000000000063900100f8080000b3a00100f8000000
            93e0030038000000633801001004000083a0000007000000238002001704
            0000931c020047000000131c000047000000e320030007fc03006f000000
            800000006f0000000000000067000200000000009318000000000000931c
            0200011c0200131c0200811c0200131800000000000023880200d7000000
            23880000d700000023800200c700000023800000c7000000931c00000000
            000093180000000000001320000000000000b760010000080000130c0200
            1700000003b802000800000033d80000f300000033180000d60000006358
            02000518000063d00100c51c0000631800000800000023b00200f1180200
            23b80200d1180200b71c030000080000839c020087fc0300839800000700
            0000039c000047000000131400001000000033180200d7000000b3dc0000
            f6000000b31c0200e700000023a00200c118020023a80200f1180200b398
            0300e60000006310020006080000371c01000008000093180000f0fc0300
            23880000d700000023800000c700000023880000f7000000931c00000020
            0000f39c020047c00000f39c010004c00000131400000000000067000200
            00000000839c0200080000001320000010000000b31c0000f5000100b3d8
            0000f5000000b3140200d500010013140200070000009318000006000000
            931c0000030000006fc003005fd803001304000001fc0300239800001100
            0000931c000000200000f3dc020047c00000b71c03000008000083980200
            87fc0300931c0200011c0200039c020007000000839c0200470000001318
            0200811c02009314020056000000039400000600000003a0000046000000
            b3d80200d5000000131800000000000063880300d710000063500200f600
            000063b80100b7080000631800000600000023a00200e118020023a80200
            f1180200b71801000008000013180000f0fc030023880200c60000002380
            0200e600000023880200f6000000ef00000080a80100931c000000200000
            f39c020047c0000083800000c10000001304000001040000670002000000
            000033180000a7000000b3e00000e6000000b31c020007040000131c0000
            06000000b31c0200f800000013180000100000006fc003005fe803001304
            000001fc03002398000011000000ef00000080940100379c010000000000
            839c00000708000083800000c100000093dc0300d7fc030023800000f708
            000013040000010400006700020000000000f39c000040c4030013140000
            05fc030013d40100f53c00001354000025000000979c000000000000931c
            0200c794000033140200a7000000038c0000050000006700000003000000
            6368010005100000b71c000000000200131c030007fc030033dc0100e500
            00006330000007000000931c030007f80300b3dc0100f500000063580200
            0700000013d40100f53c00006fc003009fec030013540000150000001354
            010015000000931c0000b000000063500000f50000006f00000080100000
            931c00003000000063500000f50000006fc003001fdc0300931c00007000
            000063700000f50000006fc003009fb003001304000001fc030013140000
            150000002398000011000000ef0000008014000067000200000000006f00
            0000807c010067000200000000001304000001fc030013140000a0000000
            2398000011000000ef000000c00c00006700020000000000670002000000
            000067000200000000006700020000000000670002000000000067000200
            000000006700020000000000670002000000000067000200000000006700
            0200000000006fc003009ff0030067000200000000006700020000000000
            67000200000000006f00000000000000979c000000000000931c0200c700
            0100839c020007000000131c0200013c020033140200a700000063b80100
            e5000000131c0200013c020063a80100a7000000179c0000000000002398
            0000a7f8000013140200070000006700020000000000931c0000f0fc0300
            6fc003005ffc03001394000035000000670002000000000013140000f0fc
            030067000200000000001304000001f8030023b800001100000023980000
            b1000000ef00000080a40100630000000508000083940000c1000000b79c
            000000000000131400000000000023880200f500000083800000c1040000
            1304000001080000670002000000000013140000f0fc03006fc003001ffc
            0300139400003500000013140000f5fc0300670002000000000013140000
            f0fc0300670002000000000013140000f0fc03006700020000000000f39c
            010004c00000670002000000000023800000b50000006700020000000000
            03940000050000006700020000000000133802000600000033780000be00
            000033f80100ce000000038c000005000000930c000006000000930c0300
            f3fc030033cc010073000000338c0100c304000023800000650000006700
            020000000000039400000500000033d40100c500000033540100b5000000
            670002000000000023400000b50000006700020000000000035400000500
            00006700020000000000133802000600000033780000be00000033f80100
            ce000000034c000005000000930c000006000000930c0300f3fc030033cc
            010073000000338c0100c304000023400000650000006700020000000000
            035400000500000033d40100c500000033540100b5000000670002000000
            000023000000b50000006700020000000000031400000500000067000200
            00000000133802000600000033780000be00000033f80100ce000000030c
            000005000000930c000006000000930c0300f3fc030033cc010073000000
            338c0100c304000023000000650000006700020000000000031400000500
            000033d40100c500000033540100b5000000670002000000000063100000
            05280000931c00007000000063800300d7280000b79c00000000000063f0
            0100f62000001304000001f8030023b000008100000023a0000021040000
            1310000006000000132402000500000023a800009100000093d40100f63c
            000093100000050000001350010054000100131400008900000023b80000
            11000000239800003104000013d0010084fc01009324020006000000efc0
            0300dfd8030013140000c9000000b394010034040000efc003001fd80300
            13140000090400002380020024040000efc00300dfd4030013d401002500
            00006348000005080000230802000400000083800000c104000003900000
            81040000839000004104000003a400000104000083a40000c10000001304
            000001080000670002000000000003940200040000001314000045000000
            efc003009fc80300039402000400000013140000050400006fc003001ff0
            030067000200000000001304000001f8030023b800001100000023b00000
            8100000023a800009100000023a000002104000023980000310400006330
            000005200000932402000500000063200200052000009310000006000000
            632000000608000013100000050000000394000005000000132400000000
            00001314000005040000efc003009fb40300831c010044000000b39c0100
            f500000023080000f400000013d401002500000063100000051800006348
            00009908000083800000c104000003900000810400001314020004000000
            03a4000001040000839000004104000083a40000c1000000130400000108
            0000670002000000000003940000040000001314000045000000efc00300
            5fa403000000a4310000a441004024110000002093d00300c4fc030023b8
            00001100000023b000008100000023a00000210400002398000031040000
            9310020084000000931c0000c000000063d00300f418000093100000c000
            000063880300b41800001324000005000000ef40000000040100931c0200
            81200200039c02000700000013100000070000006368000004180000931c
            0200c1200200839c02000700000063680200070000009314000000000000
            1314000009000000ef000000d0bc000023980200a1200200931402000400
            00001314000009000000ef000000d0b8000093240000f0fc030063680000
            352c0000931c0000c000000023800000f90000001314000009000000ef40
            000040f000006f00000000040000e340030004e80300931c0000c0000000
            23800000f5000000131400000000000083800000c1040000039000008104
            0000839000004104000003a400000104000083a40000c100000013040000
            010800006700020000000000839c000004000000b31c0200970001006338
            03000710000093180000b000000063e80300f600000023800000f4000000
            33100000f400000023800000940000006f00000000040000839c00004400
            0000636800008708000023900200f12002001314000009000000ef400000
            c0d4000013140000b4000000931c00004400000013d4010085fc0300331c
            0000f5000100e338000007e0030033100000e4000000b31c0200a7000100
            23800000f40000006fc00300dfe0030023880000f70000006fc003001ff4
            0300131c00000400000003900000440000006fc003001fc8030013100000
            3500000013d00100c4fc0300e308000085e80300b3140000a40001001314
            000009000000ef000000d0840000e368000035e403006fc003005fcc0300
            839c000086000000931c0200f7fc030023900000f6000000637003000700
            0000039c00008604000063180300e7000000931c0000a000000063500200
            f50000006f00000090d80000839c0000060000001314020005000000131c
            02001700000023800000e600000023000200b70000006700020000000000
            1304000001f8030023b000008100000023a800009100000023a000002104
            00002398000031040000239000004104000023b800001100000013240000
            0500000093240200050000001310000006000000b3100000d60000001328
            0000f0fc0300635800009400000013140000000000006f000000c0040000
            831401000400000013180200090000001314000009000000efc00300dfdc
            03001310000014000000e340000045fc030083800000c104000003900000
            81040000839000004104000003a400000104000083a40000c100000003a8
            000081000000130400000108000067000200000000001304000001d80300
            23b000008120000023a800009120000023a0000021240000239800003124
            000023b80000112000002390000041240000238800005124000023800000
            6124000023b80000711c000023b00000811c000023a80000911c00009324
            000005000000931002000500000013240000060000001310020006000000
            6320000005000000839c0000850400006350020007000000efc003001fd8
            0200975c000000000000931c020007a4010063480200f448000083900200
            49000000835c0300c400000093dc0300870000006338020007480000839c
            0200040400006328020007480000931c000000080000a3100000f1080000
            931c0000000c0000238800000108000023140000f1080000239800008100
            0000132c0000500800009768000000000000932802000aa40100932c0000
            1000000017b00300fffc0100133000004c5c01001310000009000000831c
            010004000000631002000700000063780200674c0000b330000024040100
            631802000c080000931802000c0000001318000009000000931402000400
            00001314020009000000efc003001fb00300931c0000f0fc030063180000
            f5b000008398000041080000b31802009604000023880000d1080000831c
            0100040000006330020007a80000931c0000f0fc03001324000014000000
            23a000000100000023b800000100000023a80000f100000023b000000100
            0000a3240000011000002390000001180000831401000900000013180000
            50000000131402000a000000ef400000004400001310000019000000839c
            000001040000636000000530000013dc0300070400006318000007000000
            131c000000080000a3240000e110000013dc030087000000631800000700
            0000131c0000b0080000a3240000e11000008318010009000000131c0000
            a008000063380200e6280000039c0000c10400001310000009000000931c
            000000000000131800009000000083180100040000009314000014000000
            9318020006f4030063c80100d660000063580200072800006f0000000030
            0000975c000000000000931c02004760010063580200f400000083900200
            890000006fc003005fb40300975c000000000000931c0200074c0100e350
            0200f4b0030083900200c90000006fc003001fb003009314020004000000
            1314020009000000ef00000050980000e308000005b0030013140000f0fc
            030083800000c12400000390000081240000839000004124000003a40000
            0124000083a40000c120000003a800008120000083a800004120000003ac
            00000120000083ac0000c11c000003b00000811c000083b00000411c0000
            1304000001280000670002000000000013100000140000006fc003009fac
            0300331400005504010033540200ab000000b39c0300a700000023a00000
            f100000013240000040000006fc003005fc00300039c0000c10000009318
            000047000000039c00000700000023980000d10000006318010007000000
            23b80000e10000006f00000040040000331c0000e0000100939c03002700
            000023b80000e100000023a00000f1000000031c010004000000931c0000
            e008000063580000f7080000031c010014000000931c0000a00800006358
            0000f7300000839c0000c10000001310000024000000131c020047000000
            839c02000700000023980000e1000000631803000728000023a80000f100
            000083140100040000001318000030000000175400000000000013140000
            452c0100ef000000d0e801006310000005080000975c000000000000931c
            02004728010033140000f5000100931c000000100000b35c0200a7000000
            0394000001040000131000001400000033940100f500000023a00000a100
            000083140100040000001318000060000000175400000000000013140000
            c51c0100132400001400000023100000b1080000ef00000090d801006320
            000005380000635800000c280000039c000001040000839c0000c1000000
            13dc0100074000006318000007200000931c02004700000023980000f100
            0000839c000041080000b31c02004704000023880000f10800006fc00300
            5f6c0300935c000027000000b31c0200e7000000935c020017000000331c
            0200d70000001310020005000000931c0000100000006fc003009f940300
            931c0000f0fc03006fc003005fd40300131000001400000023a800000100
            0000931c000000000000131c000000000000131800009000000083180100
            0400000093140000140000009318020006f4030063e00100d6000000e320
            020007c8030023a80000e10000006fc003009fc80300935c000027000000
            b31c0200e7000000935c020017000000331c0200d7000000131002000500
            0000931c0000100000006fc00300dff00300931c02007700000093dc0300
            87fc0300931c0200870000006fc003001fdc0300131c0000c10000009718
            000000000000931802004604030013180200040000009314000001040000
            13140200090000009700000000000000e700000000000000931c0000f0fc
            03001328000005000000e3500000f5d00300835c0300c400000093dc0300
            07100000e35802000780030003940000410800006fc003009f800300131c
            0000c100000097180000000000009318020046f402001318020004000000
            93140000010400001314020009000000ef000000806c00006fc003005ff0
            03001304000001f4030023a8000051040000839c02000504000093280000
            07000000039c0200850000002390000081080000238800009108000023b8
            00003104000023b0000041040000239800001108000023800000210c0000
            23a000006104000023980000710400009324000005000000131002000500
            00009310000006000000132802000600000063500300e7000000931c0000
            0700000023800200f4000000031c0100341000006318000007000000931c
            02001700000023800200f4000000839c00000400000093dc030007080000
            6320020007000000839c020004000000931c02002700000023800200f400
            000003a400000400000013e40100690000006378000009000000132c0000
            94040000932c0000f0fc0300839c0000c4000000039c020004000000b31c
            0200e700010063080100f9200000839c0000040000008318010034100000
            93dc030007080000b3d80000d00000006340020007300000131800003410
            0000931400000a0000001314020009000000e70002000a000000931c0000
            f0fc030063200000f5180000839c0000040000001318000040000000039c
            02000400000093dc03006700000083980000c40000009310000000000000
            63600200c7000000b3100200e60001006350030004000000931000000000
            0000839c000084000000039c00000404000063580100f7000000b31c0200
            e7000100b3100200f4000000132400000000000013100000a4040000132c
            0000f0fc0300634002002424000013140000000000006f00000000080000
            9318000010000000131800000b000000931400000a000000131402000900
            0000e70002000a00000063680000750c000013140000f0fc030083800000
            c10800000390000081080000839000004108000003a400000108000083a4
            0000c104000003a800008104000083a800004104000003ac000001040000
            83ac0000c100000013040000010c00006700020000000000132400001900
            00006fc003005fc80300331c0000d400000013180000000c0000a3040000
            c7100000031c010054100000931c020016000000b31c0000f40000009318
            020026000000a3040200e71000006fc003005fc803009318000010000000
            1318000004000000931400000a0000001314020009000000e70002000a00
            0000e320000065e4030013240000190000006fc003005fd8030013040000
            01f0030023b000008108000023980000310c000023880000510c00002380
            0000610c000023b800007104000023b800001108000023a8000091080000
            23a00000210c000023900000410c000023b0000081040000831c03008504
            0000932c02000600000093180000e0180000932800000500000013100200
            05000000132c000006000000932402003510000063300200d7a0000063a0
            0300f6180000931800003018000063300200d728000063b00300f6000000
            6300020007b00000931800008014000063200200d7480000133000002410
            00006f000000402c0000931800004018000063180200d700000093180000
            90180000e3580200d7f80300839c000004000000039800000700000093d4
            0300072000000040243100402441000006c001010000000202b000000000
            000203b003000000000006c021010000000202b000000000000203b00100
            0000020000d0000000f0
            <crc>
                472a
            </crc>
        </region>
        <region name="INIT_STAGE_1_SNVM_CLIENT" address="0x0000ca" retrieveAddressFromFile="false" size="4368" format="HEX" type="PlainText NonAuthenticated" wordSize="8" numberWords="4368" memFile="designer\BaseDesign\BaseDesign_init_stage_1_snvm.mem" memType="Microsemi Binary 32-bit" memFileTimeStamp="" clientType="public" program="true">
            <write_protect/>
            <fabric_accessible/>
            <mss_accessible/>
            060010c032000000000f11c0b80b0000ff3f0c1200000020000000000000
            000000000000000000000000000000000000000000000000000000000000
            000000000000000000000000000000000000000000000000000000000000
            000000000000000000000000000000000000000000000000000000000000
            000000000000000000000000000000000000000000000000000000000000
            000000000000000000000000000000000000000000000000000000000000
            000000000000000000000000000000000000000000000000000000000000
            000000000000000000000000000000000000000000000000000000000000
            000000000000000000000000000000000000000000000000000000000000
            000000000000000000000000000000000000000000000000000000000000
            000000000000000000000000000000000000000000000000000000000000
            000000000000000000000000000000000000000000000000000000000000
            000000000000000000000000000000000000000000000000000000000000
            000000000000000000000000000000000000000000000000000000000000
            000000000000000000000000000000000000000000000000000000000000
            000000000000000000000000000000000000000000000000000000000000
            000000000000000000000000000000000000000000000000000000000000
            000000000000000000000000000000000000000000000000000000000000
            000000000000000000000000000000000000000000000000000000000000
            000000000000000000000000000000000000000000000000000000000000
            000000000000000000000000000000000000000000000000000000000000
            000000000000000000000000000000000000000000000000000000000000
            000000000000000000000000000000000000000000000000000000000000
            000000000000000000000000000000000000000000000000000000000000
            000000000000000000000000000000000000000000000000000000000000
            000000000000000000000000000000000000000000000000000000000000
            000000000000000000000000000000000000000000000000000000000000
            000000000000000000000000000000000000000000000000000000000000
            000000000000000000000000000000000000000000000000000000000000
            000000000000000000000000000000000000000000000000000000000000
            000000000000000000000000000000000000000000000000000000000000
            000000000000000000000000000000000000000000000000000000000000
            000000000000000000000000000000000000000000000000000000000000
            000000000000000000000000000000000000000000000000000000000000
            000000000000000000000000000000000000000000000000000000000000
            000000000000000000000000000000000000000000000000000000000000
            000000000000000000000000000000000000000000000000000000000000
            000000000000000000000000000000000000000000000000000000000000
            000000000000000000000000000000000000000000000000000000000000
            000000000000000000000000000000000000000000000000000000000000
            000000000000000000000000000000000000000000000000000000000000
            000000000000000000000000000000000000000000000000000000000000
            000000000000000000000000000000000000000000000000000000000000
            000000000000000000000000000000000000000000000000000000000000
            000000000000000000000000000000000000000000000000000000000000
            000000000000000000000000000000000000000000000000000000000000
            000000000000000000000000000000000000000000000000000000000000
            000000000000000000000000000000000000000000000000000000000000
            000000000000000000000000000000000000000000000000000000000000
            000000000000000000000000000000000000000000000000000000000000
            000000000000000000000000000000000000000000000000000000000000
            000000000000000000000000000000000000000000000000000000000000
            000000000000000000000000000000000000000000000000000000000000
            000000000000000000000000000000000000000000000000000000000000
            000000000000000000000000000000000000000000000000000000000000
            000000000000000000000000000000000000000000000000000000000000
            000000000000000000000000000000000000000000000000000000000000
            000000000000000000000000000000000000000000000000000000000000
            000000000000000000000000000000000000000000000000000000000000
            000000000000000000000000000000000000000000000000000000000000
            000000000000000000000000000000000000000000000000000000000000
            000000000000000000000000000000000000000000000000000000000000
            000000000000000000000000000000000000000000000000000000000000
            000000000000000000000000000000000000000000000000000000000000
            000000000000000000000000000000000000000000000000000000000000
            000000000000000000000000000000000000000000000000000000000000
            000000000000000000000000000000000000000000000000000000000000
            000000000000000000000000000000000000000000000000000000000000
            000000000000000000000000000000000000000000000000000000000000
            000000000000000000000000000000000000000000000000000000000000
            000000000000000000000000000000000000000000000000000000000000
            000000000000000000000000000000000000000000000000000000000000
            000000000000000000000000000000000000000000000000000000000000
            000000000000000000000000000000000000000000000000000000000000
            000000000000000000000000000000000000000000000000000000000000
            000000000000000000000000000000000000000000000000000000000000
            000000000000000000000000000000000000000000000000000000000000
            000000000000000000000000000000000000000000000000000000000000
            000000000000000000000000000000000000000000000000000000000000
            000000000000000000000000000000000000000000000000000000000000
            000000000000000000000000000000000000000000000000000000000000
            000000000000000000000000000000000000000000000000000000000000
            000000000000000000000000000000000000000000000000000000000000
            000000000000000000000000000000000000000000000000000000000000
            000000000000000000000000000000000000000000000000000000000000
            000000000000000000000000000000000000000000000000000000000000
            000000000000000000000000000000000000000000000000000000000000
            000000000000000000000000000000000000000000000000000000000000
            000000000000000000000000000000000000000000000000000000000000
            000000000000000000000000000000000000000000000000000000000000
            000000000000000000000000000000000000000000000000000000000000
            000000000000000000000000000000000000000000000000000000000000
            000000000000000000000000000000000000000000000000000000000000
            000000000000000000000000000000000000000000000000000000000000
            000000000000000000000000000000000000000000000000000000000000
            000000000000000000000000000000000000000000000000000000000000
            000000000000000000000000000000000000000000000000000000000000
            000000000000000000000000000000000000000000000000000000000000
            000000000000000000000000000000000000000000000000000000000000
            000000000000000000000000000000000000000000000000000000000000
            000000000000000000000000000000000000000000000000000000000000
            000000000000000000000000000000000000000000000000000000000000
            000000000000000000000000000000000000000000000000000000000000
            000000000000000000000000000000000000000000000000000000000000
            000000000000000000000000000000000000000000000000000000000000
            000000000000000000000000000000000000000000000000000000000000
            000000000000000000000000000000000000000000000000000000000000
            000000000000000000000000000000000000000000000000000000000000
            000000000000000000000000000000000000000000000000000000000000
            000000000000000000000000000000000000000000000000000000000000
            000000000000000000000000000000000000000000000000000000000000
            000000000000000000000000000000000000000000000000000000000000
            000000000000000000000000000000000000000000000000000000000000
            000000000000000000000000000000000000000000000000000000000000
            000000000000000000000000000000000000000000000000000000000000
            000000000000000000000000000000000000000000000000000000000000
            000000000000000000000000000000000000000000000000000000000000
            000000000000000000000000000000000000000000000000000000000000
            000000000000000000000000000000000000000000000000000000000000
            000000000000000000000000000000000000000000000000000000000000
            000000000000000000000000000000000000000000000000000000000000
            000000000000000000000000000000000000000000000000000000000000
            000000000000000000000000000000000000000000000000000000000000
            000000000000000000000000000000000000000000000000000000000000
            000000000000000000000000000000000000000000000000000000000000
            000000000000000000000000000000000000000000000000000000000000
            000000000000000000000000000000000000000000000000000000000000
            000000000000000000000000000000000000000000000000000000000000
            000000000000000000000000000000000000000000000000000000000000
            000000000000000000000000000000000000000000000000000000000000
            000000000000000000000000000000000000000000000000000000000000
            000000000000000000000000000000000000000000000000000000000000
            000000000000000000000000000000000000000000000000000000000000
            000000000000000000000000000000000000000000000000000000000000
            000000000000000000000000000000000000000000000000000000000000
            000000000000000000000000000000000000000000000000000000000000
            000000000000000000000000000000000000000000000000000000000000
            00000000000000000000ff3f0c32ff3f0c42ff3f0c520100002000000000
            000000000000000000000000000000000000000000000000000000000000
            000000000000000000000000000000000000000000000000000000000000
            000000000000000000000000000000000000000000000000000000000000
            000000000000000000000000000000000000000000000000000000000000
            00000000ff3f0c62ff3f0c72000006c001000000000202b0000000000200
            06c004040404020200b048600003020006c000000700020200b04c610003
            020006c004040404020200b048a00003020006c000000700020200b04ca1
            0003000006c000000000030000e000000000
            <crc>
                c9bd
            </crc>
        </region>
    </nvm>
</Actel_Data_File>
